Time,Original Signal
0.0,3.162228482959704e-05
0.001000277854959711,6.737835328049046e-05
0.002000555709919422,0.00010752480062825413
0.003000833564879133,0.0001523254542561321
0.004001111419838844,0.00020205146681116402
0.005001389274798556,0.00025698127374655796
0.006001667129758266,0.0003174003733038334
0.007001944984717977,0.00038360089026542366
0.008002222839677688,0.0004558808964750514
0.0090025006946374,0.0005345434810616323
0.010002778549597111,0.0006198955890500785
0.011003056404556821,0.0007122466744588113
0.012003334259516532,0.0008119072388081247
0.013003612114476244,0.0009191873447380364
0.014003889969435954,0.0010343952042331582
0.015004167824395665,0.0011578359390213124
0.016004445679355377,0.0012898105949593459
0.017004723534315088,0.001430615462672106
0.0180050013892748,0.0015805417168038077
0.01900527924423451,0.0017398753425951815
0.020005557099194222,0.0019088972790781745
0.02100583495415393,0.002087883680359202
0.022006112809113642,0.0022771061854609228
0.023006390664073353,0.0024768320945555175
0.024006668519033065,0.0026873243723588747
0.025006946373992776,0.002908841432158605
0.026007224228952488,0.003141636689816216
0.0270075020839122,0.0033859579103081264
0.028007779938871907,0.003642046395684897
0.02900805779383162,0.003910136080307162
0.03000833564879133,0.004190452605835182
0.03100861350375104,0.004483212444469406
0.03200889135871075,0.004788622124814287
0.03300916921367046,0.005106877592282783
0.034009447068630176,0.005438163709092969
0.035009724923589884,0.005782653873430237
0.0360100027785496,0.006140509718790617
0.03701028063350931,0.006511880845040454
0.03801055848846902,0.0068969045297065535
0.03901083634342873,0.007295705366135082
0.040011114198388445,0.007708394770295089
0.04101139205334815,0.00813507029012781
0.04201166990830786,0.008575814644479296
0.043011947763267576,0.009030694418577456
0.044012225618227284,0.009499758354525585
0.045012503473187,0.009983035200760906
0.04601278132814671,0.010480531123432885
0.04701305918310642,0.010992226732384666
0.04801333703806613,0.011518073830421634
0.04901361489302584,0.012057992051370953
0.05001389274798555,0.012611865603785131
0.05101417060294526,0.01317954037599665
0.052014448457904976,0.01376082167729181
0.053014726312864684,0.014355472882675588
0.0540150041678244,0.014963215210603396
0.05501528202278411,0.015583728793672064
0.056015559877743815,0.016216655106546417
0.05701583773270353,0.01686160070420695
0.05801611558766324,0.017518142112309544
0.05901639344262295,0.018185831616576803
0.06001667129758266,0.018864203631715464
0.061016949152542375,0.019552781293999396
0.06201722700750208,0.020251082904702396
0.0630175048624618,0.02095862783651697
0.0640177827174215,0.021674941489024983
0.06501806057238121,0.022399558845132728
0.06601833842734092,0.023132026160522737
0.06701861628230064,0.023871900347540356
0.06801889413726035,0.024618745726809804
0.06901917199222006,0.02537212803101601
0.07001944984717977,0.02613160584502965
0.07101972770213949,0.026896720013182066
0.0720200055570992,0.027666981870751187
0.0730202834120589,0.02844186138504791
0.07402056126701861,0.029220776356642365
0.07502083912197832,0.030003083704039937
0.07602111697693804,0.03078807355681381
0.07702139483189775,0.03157496648087335
0.07802167268685746,0.03236291374674743
0.07902195054181717,0.03315100021084132
0.08002222839677689,0.03393824916089229
0.0810225062517366,0.034723628390294144
0.0820227841066963,0.035506056790815387
0.08302306196165601,0.03628441085550075
0.08402333981661572,0.03705753063081583
0.08502361767157544,0.037824224824514655
0.08602389552653515,0.038583274943518195
0.08702417338149486,0.03933343848526715
0.08802445123645457,0.04007345131785892
0.08902472909141428,0.040802029445294055
0.090025006946374,0.04151787036107785
0.0910252848013337,0.042219654154346184
0.09202556265629341,0.042906044464120226
0.09302584051125312,0.04357568930016452
0.09402611836621284,0.044227221684207
0.09502639622117255,0.04485926002917653
0.09602667407613226,0.04547040817414629
0.09702695193109197,0.04605925502685824
0.09802722978605168,0.046624373824076394
0.0990275076410114,0.047164321087472906
0.1000277854959711,0.0476776354124379
0.10102806335093081,0.04816283626508233
0.10202834120589052,0.04861842297172988
0.10302861906085024,0.04904287406744495
0.10402889691580995,0.04943464713487866
0.10502917477076966,0.04979217922269595
0.10602945262572937,0.05011388788975896
0.10702973048068908,0.05039817287530227
0.1080300083356488,0.05064341834162024
0.1090302861906085,0.050847995575417575
0.11003056404556821,0.05101026597967284
0.11103084190052792,0.051128584159616595
0.11203111975548763,0.051201300918170836
0.11303139761044735,0.051226766024389504
0.11403167546540706,0.05120333068266955
0.11503195332036677,0.05112934968643752
0.11603223117532648,0.05100318327374563
0.1170325090302862,0.0508231987152639
0.1180327868852459,0.05058777166887472
0.11903306474020561,0.0502952873410999
0.12003334259516532,0.049944141508413274
0.12103362045012503,0.049532741467305866
0.12203389830508475,0.049059506992637066
0.12303417616004446,0.04852287138309333
0.12403445401500417,0.04792128266004709
0.1250347318699639,0.04725320496683212
0.1260350097249236,0.04651712019596752
0.1270352875798833,0.04571152985583868
0.128035565434843,0.044834957175141486
0.12903584328980272,0.04388594943075405
0.13003612114476243,0.042863080471674586
0.13103639899972214,0.04176495339980259
0.13203667685468184,0.040590203359799557
0.13303695470964158,0.03933750038612889
0.1340372325646013,0.03800555225561104
0.135037510419561,0.03659310729882331
0.1360377882745207,0.03509895713461292
0.1370380661294804,0.03352193930964674
0.13803834398444012,0.03186093984754252
0.13903862183939983,0.03011489573416454
0.14003889969435954,0.02828279737843248
0.14103917754931924,0.02636369108411792
0.14203945540427898,0.02435668154628509
0.1430397332592387,0.022260934352725643
0.1440400111141984,0.02007567843623829
0.1450402889691581,0.017800208396868755
0.1460405668241178,0.015433886600144709
0.14704084467907752,0.012976144962981793
0.14804112253403723,0.010426486368543932
0.14904140038899694,0.007784485706697227
0.15004167824395664,0.005049790610517819
0.15104195609891638,0.0022221220347311554
0.1520422339538761,-0.0006987251218242397
0.1530425118088358,-0.003712881127109606
0.1540427896637955,-0.0068204000608993445
0.1550430675187552,-0.010021257860558177
0.15604334537371492,-0.01331534973245602
0.15704362322867463,-0.016702487005535258
0.15804390108363434,-0.020182393604595474
0.15904417893859404,-0.023754702388610854
0.16004445679355378,-0.027418951619491504
0.1610447346485135,-0.031174581796718545
0.1620450125034732,-0.0350209330218351
0.1630452903584329,-0.03895724295928847
0.1640455682133926,-0.04298264535608558
0.16504584606835232,-0.04709616899358497
0.16604612392331203,-0.05129673689044813
0.16704640177827174,-0.05558316556797918
0.16804667963323144,-0.05995416422546521
0.16904695748819115,-0.0644083337377135
0.1700472353431509,-0.0689441654574828
0.1710475131981106,-0.07356003986221953
0.1720477910530703,-0.07825422511652423
0.17304806890803,-0.08302487562734776
0.17404834676298972,-0.08787003065343331
0.17504862461794943,-0.09278761300286331
0.17604890247290914,-0.09777542782283037
0.17704918032786884,-0.10283116146322628
0.17804945818282855,-0.10795238038732864
0.1790497360377883,-0.11313653011197125
0.180050013892748,-0.11838093418419705
0.1810502917477077,-0.12368279323380929
0.1820505696026674,-0.1290391841696619
0.18305084745762712,-0.13444705959994938
0.18405112531258683,-0.13990324754640746
0.18505140316754654,-0.14540445148984205
0.18605168102250624,-0.15094725073726076
0.18705195887746595,-0.15652810105040207
0.1880522367324257,-0.16214333543401557
0.1890525145873854,-0.16778916496032226
0.1900527924423451,-0.17346167951000288
0.1910530702973048,-0.17915684834073622
0.19205334815226452,-0.18487052044707378
0.19305362600722423,-0.19059842473912045
0.19405390386218394,-0.19633617012613772
0.19505418171714364,-0.20207924562762739
0.19605445957210335,-0.20782302063741592
0.1970547374270631,-0.21356274543560766
0.1980550152820228,-0.2192935519908246
0.1990552931369825,-0.22501045503920988
0.2000555709919422,-0.2307083533844523
0.20105584884690192,-0.23638203134501273
0.20205612670186163,-0.24202616028209356
0.20305640455682133,-0.24763530016770768
0.20405668241178104,-0.25320390118543196
0.20505696026674075,-0.2587263053860871
0.2060572381217005,-0.2641967484400829
0.2070575159766602,-0.26960936153589266
0.2080577938316199,-0.2749581734713324
0.2090580716865796,-0.28023711297186893
0.21005834954153932,-0.2854400112486986
0.21105862739649903,-0.2905606047814307
0.21205890525145873,-0.29559253828176796
0.21305918310641844,-0.30052936777198735
0.21405946096137815,-0.3053645636991526
0.2150597388163379,-0.3100915140035484
0.2160600166712976,-0.31470352706844795
0.2170602945262573,-0.31919383450046546
0.218060572381217,-0.3235555937278158
0.21906085023617672,-0.3277818904543409
0.22006112809113643,-0.33186574105822125
0.22106140594609613,-0.3358000950595679
0.22206168380105584,-0.33957783778880574
0.22306196165601555,-0.34319179336646044
0.22406223951097526,-0.3466347280635008
0.225062517365935,-0.34989935406256684
0.2260627952208947,-0.3529783335949669
0.2270630730758544,-0.3558642833917091
0.22806335093081412,-0.35854977936097265
0.22906362878577383,-0.3610273613897718
0.23006390664073353,-0.36328953816489673
0.23106418449569324,-0.3653287919188278
0.23206446235065295,-0.36713758303149713
0.23306474020561266,-0.3687083544572168
0.2340650180605724,-0.37003353599108835
0.2350652959155321,-0.3711055484278879
0.2360655737704918,-0.3719168076849496
0.23706585162545152,-0.3724597289523063
0.23806612948041123,-0.3727267309040626
0.23906640733537093,-0.37271023997032954
0.24006668519033064,-0.37240269464709774
0.24106696304529035,-0.3717965498236788
0.24206724090025006,-0.3708842811332833
0.2430675187552098,-0.3696583893685004
0.2440677966101695,-0.36811140503024165
0.2450680744651292,-0.3662358930796197
0.24606835232008892,-0.3640244579325324
0.24706863017504863,-0.36146974868536913
0.24806890803000833,-0.35856446450640517
0.24906918588496804,-0.3553013600917913
0.2500694637399278,-0.35167325108116876
0.2510697415948875,-0.3476730193563046
0.2520700194498472,-0.34329361819430065
0.2530702973048069,-0.338528077295176
0.2540705751597666,-0.33336950773392676
0.2550708530147263,-0.32781110689058435
0.256071130869686,-0.321846163391456
0.25707140872464573,-0.31546806206253325
0.25807168657960544,-0.3086702888662601
0.25907196443456515,-0.30144643577549646
0.26007224228952486,-0.2937902055372835
0.26107252014448457,-0.28569541629223005
0.2620727979994443,-0.27715600603878804
0.263073075854404,-0.2681660369600966
0.2640733537093637,-0.2587196996590309
0.2650736315643234,-0.24881131736935075
0.26607390941928316,-0.238435350222553
0.26707418727424287,-0.22758639964697366
0.2680744651292026,-0.21625921295592626
0.2690747429841623,-0.20444868814681588
0.270075020839122,-0.19214987888919927
0.2710752986940817,-0.1793579996358229
0.2720755765490414,-0.16606843075741196
0.2730758544040011,-0.1522767235876503
0.2740761322589608,-0.13797860527234368
0.27507641011392053,-0.12316998334203416
0.27607668796888024,-0.1078469499610801
0.27707696582383995,-0.09200578583758708
0.27807724367879966,-0.07564296380065987
0.27907752153375937,-0.058755152063734314
0.2800777993887191,-0.041339217200465954
0.2810780772436788,-0.02339222686785447
0.2820783550986385,-0.004911452320736991
0.2830786329535982,0.014105629231174779
0.28407891080855796,0.03366133237057292
0.28507918866351767,0.053757761271774285
0.2860794665184774,0.07439680749714817
0.2870797443734371,0.09558014772824126
0.2880800222283968,0.11730924136115957
0.2890803000833565,0.13958532789846673
0.2900805779383162,0.16240942409207768
0.2910808557932759,0.1857823208351598
0.2920811336482356,0.20970457985886135
0.29308141150319533,0.23417653034920308
0.29408168935815504,0.25919826564630805
0.29508196721311475,0.28476964021059814
0.29608224506807446,0.31089026703237593
0.29708252292303416,0.3375595156237549
0.2980828007779939,0.3647765106735294
0.2990830786329536,0.3925401313784815
0.3000833564879133,0.42084901139995223
0.301083634342873,0.44970153933938584
0.30208391219783276,0.4790958595836366
0.30308419005279247,0.5090298733417131
0.3040844679077522,0.5395012396830057
0.3050847457627119,0.5705073763998655
0.3060850236176716,0.6020454605604821
0.3070853014726313,0.6341124286894047
0.308085579327591,0.6667049765987991
0.3090858571825507,0.6998195589716631
0.3100861350375104,0.7334523888471508
0.31108641289247013,0.767599437165886
0.31208669074742984,0.8022564325016944
0.31308696860238955,0.8374188610513728
0.31408724645734926,0.8730819668990585
0.31508752431230896,0.9092407525373898
0.31608780216726867,0.9458899796236653
0.3170880800222284,0.9830241699713832
0.3180883578771881,1.020637606811057
0.3190886357321478,1.0587243363821737
0.32008891358710756,1.0972781699272116
0.32108919144206727,1.1362926861430522
0.322089469297027,1.1757612341065387
0.3230897471519867,1.2156769366382205
0.3240900250069464,1.2560326940138284
0.3250903028619061,1.2968211878898555
0.3260905807168658,1.3380348852878274
0.3270908585718255,1.379666042487947
0.3280911364267852,1.4217067087176598
0.32909141428174493,1.464148729579593
0.33009169213670464,1.5069837502348973
0.33109196999166435,1.5502032184272705
0.33209224784662406,1.5937983874843427
0.33309252570158376,1.6377603194565187
0.33409280355654347,1.6820798885460446
0.3350930814115032,1.7267477849461401
0.3360933592664629,1.7717545191607602
0.3370936371214226,1.81709042681981
0.3380939149763823,1.8627456739493906
0.33909419283134207,1.9087102626065853
0.3400944706863018,1.9549740367472477
0.3410947485412615,2.001526688167769
0.3420950263962212,2.048357762352338
0.3430953042511809,2.0954566640685663
0.3440955821061406,2.1428126625860897
0.3450958599611003,2.190414896440403
0.34609613781606,2.238252377719641
0.34709641567101973,2.286313995903602
0.34809669352597944,2.3345885213219915
0.34909697138093915,2.3830646083194678
0.35009724923589886,2.431730798226822
0.35109752709085856,2.4805755222568653
0.35209780494581827,2.5295871044840186
0.353098082800778,2.5787537651273595
0.3540983606557377,2.6280636244196858
0.3550986385106974,2.677504707381761
0.3560989163656571,2.727064949807919
0.35709919422061687,2.7767322056991075
0.3580994720755766,2.8264942562634547
0.3590997499305363,2.876338820466609
0.360100027785496,2.9262535669805603
0.3611003056404557,2.976226127267777
0.3621005834954154,3.0262441094505568
0.3631008613503751,-2.878377174651926
0.3641011392053348,-2.823047529377343
0.36510141706029453,-2.768067181539156
0.36610169491525424,-2.714028695878822
0.36710197277021395,-2.6615186110517417
0.36810225062517365,-2.6110907675594732
0.36910252848013336,-2.56323521804734
0.37010280633509307,-2.5183441387938537
0.3711030841900528,-2.4766775940468624
0.3721033620450125,-2.4383332149402412
0.3731036398999722,-2.403224419210021
0.3741039177549319,-2.3710714745868184
0.37510419560989167,-2.3414085874878734
0.3761044734648514,-2.3136085369458126
0.3771047513198111,-2.2869243526817113
0.3781050291747708,-2.2605452469159744
0.3791053070297305,-2.2336616305084345
0.3801055848846902,-2.20553200272692
0.3811058627396499,-2.175543420029733
0.3821061405946096,-2.1432576115768627
0.38310641844956933,-2.10843669238461
0.38410669630452904,-2.0710455148944926
0.38510697415948875,-2.0312314181471174
0.38610725201444845,-1.989285680426252
0.38710752986940816,-1.9455935333550598
0.38810780772436787,-1.9005806852748641
0.3891080855793276,-1.8546639524174715
0.3901083634342873,-1.8082121340802828
0.391108641289247,-1.7615211346187358
0.3921089191442067,-1.7148049728157628
0.3931091969991664,-1.6682020418727015
0.3941094748541262,-1.6217939441203304
0.3951097527090859,-1.5756325428649123
0.3961100305640456,-1.5297697743984968
0.3971103084190053,-1.4842845809520173
0.398110586273965,-1.439302302134254
0.3991108641289247,-1.3950037993668891
0.4001111419838844,-1.3516237130650663
0.40111141983884413,-1.3094386305666446
0.40211169769380384,-1.2687461429661306
0.40311197554876355,-1.2298351624321215
0.40411225340372325,-1.1929473306686103
0.40511253125868296,-1.158229638106873
0.40611280911364267,-1.1256797113133288
0.4071130869686024,-1.0950872947277557
0.4081133648235621,-1.0659776833725716
0.4091136426785218,-1.0375646919372086
0.4101139205334815,-1.0087217563079633
0.4111141983884412,-0.9779797416289404
0.412114476243401,-0.9435589121411933
0.4131147540983607,-0.9034402895223967
0.4141150319533204,-0.8554783031515124
0.4151153098082801,-0.7975523292483171
0.4161155876632398,-0.7277497174974203
0.4171158655181995,-0.6445677443905145
0.4181161433731592,-0.5471174132972593
0.41911642122811893,-0.4353091329629811
0.42011669908307864,-0.30999997850365124
0.42111697693803835,-0.17308501600947276
0.42211725479299805,-0.027520864276062755
0.42311753264795776,0.12272297439123346
0.42411781050291747,0.2727826816150159
0.4251180883578772,0.41708231168028753
0.4261183662128369,0.5495732044906249
0.4271186440677966,0.6640265947269633
0.4281189219227563,0.7543769416384378
0.429119199777716,0.8151106609720487
0.4301194776326758,0.8416859126444846
0.4311197554876355,0.830955026285694
0.4321200333425952,0.7815458893404587
0.4331203111975549,0.6941476111598803
0.4341205890525146,0.5716444309897811
0.4351208669074743,0.4190537906551155
0.436121144762434,0.24324995244814923
0.43712142261739373,0.05248931923223871
0.43812170047235344,-0.14421050284892534
0.43912197832731314,-0.3377588189835024
0.44012225618227285,-0.5196577859322307
0.44112253403723256,-0.6825657810600853
0.44212281189219227,-0.8207019984118279
0.443123089747152,-0.9300672222475228
0.4441233676021117,-1.0084851393119765
0.4451236454570714,-1.0554904123992455
0.4461239233120311,-1.0721023113027333
0.4471242011669908,-1.0605273279584075
0.4481244790219505,-1.0238332440206686
0.4491247568769103,-0.9656322308529866
0.45012503473187,-0.889802390107891
0.4511253125868297,-0.8002662267676005
0.4521255904417894,-0.7008322751915053
0.4531258682967491,-0.5950946733707279
0.4541261461517088,-0.4863770201402623
0.45512642400666853,-0.37770264628774247
0.45612670186162824,-0.2717738211909608
0.45712697971658794,-0.1709468467426045
0.45812725757154765,-0.07719702470814893
0.45912753542650736,0.00792488243565124
0.46012781328146707,0.08333677747236111
0.4611280911364268,0.1484584335808158
0.4621283689913865,0.2032220698348532
0.4631286468463462,0.2480516758789264
0.4641289247013059,0.28380789180842403
0.4651292025562656,0.3117013592124938
0.4661294804112253,0.3331824066389294
0.4671297582661851,0.34981746470715575
0.4681300361211448,0.3631627203506136
0.4691303139761045,0.3746444607036174
0.4701305918310642,0.3854548964180601
0.4711308696860239,0.3964725203998579
0.4721311475409836,0.40821601274709607
0.47313142539594333,0.4208381838774129
0.47413170325090304,0.4341604241915676
0.47513198110586274,0.44774021133332964
0.47613225896082245,0.4609580104553414
0.47713253681578216,0.4731084037474701
0.47813281467074187,0.48348367290933786
0.4791330925257016,0.49144373982812084
0.4801333703806613,0.4964711176605649
0.481133648235621,0.4982115540105472
0.4821339260905807,0.496500642354163
0.4831342039455404,0.49137546670904775
0.4841344818005001,0.48307001809721856
0.4851347596554599,0.47199437426387586
0.4861350375104196,0.45869991203721433
0.4871353153653793,0.44383488261564513
0.488135593220339,0.4280955005226739
0.4891358710752987,0.4121771407365084
0.4901361489302584,0.3967290312782937
0.4911364267852181,0.3823148516490978
0.49213670464017784,0.3693812103544937
0.49313698249513754,0.35823573938240133
0.49413726035009725,0.34903604149420864
0.49513753820505696,0.34178985960203745
0.49613781606001667,0.3363658759010125
0.4971380939149764,0.33251371025870624
0.4981383717699361,0.32989089272678
0.4991386496248958,0.32809367969953185
0.5001389274798556,0.32668767260724474
0.5011392053348153,0.3252337535843324
0.502139483189775,0.32330555649250164
